# energy grid [eV]     epsr_x  epsr_y  epsr_z
#
    0.001000000   10.214129759   10.215711941   10.215863179
    0.067776294   10.215960222   10.217530850   10.217681398
    0.134552588   10.221351324   10.222887837   10.223036345
    0.201328881   10.230321362   10.231800825   10.231945920
    0.268105175   10.242900905   10.244299752   10.244440025
    0.334881469   10.259133079   10.260426850   10.260560836
    0.401657763   10.279073981   10.280237039   10.280363201
    0.468434057   10.302793217   10.303798447   10.303915156
    0.535210351   10.330374584   10.331193062   10.331298583
    0.601986644   10.361916910   10.362517539   10.362610000
    0.668762938   10.397535049   10.397884157   10.397961531
    0.735539232   10.437361090   10.437421972   10.437482046
    0.802315526   10.481545760   10.481278163   10.481318508
    0.869091820   10.530260088   10.529619624   10.529637557
    0.935868114   10.583697351   10.582634816   10.582627360
    1.002644407   10.642075348   10.640535935   10.640499772
    1.069420701   10.705639064   10.703561452   10.703492865
    1.136196995   10.774663792   10.771979069   10.771873875
    1.202973289   10.849458787   10.846089190   10.845942665
    1.269749583   10.930371578   10.926228991   10.926035779
    1.336525876   11.017793044   11.012777217   11.012531218
    1.403302170   11.112163430   11.106159839   11.105854080
    1.470078464   11.213979509   11.206856778   11.206483254
    1.536854758   11.323803134   11.315409911   11.314959392
    1.603631052   11.442271527   11.432432665   11.431894466
    1.670407346   11.570109709   11.558621585   11.557983274
    1.737183639   11.708145640   11.694770354   11.694017400
    1.803959933   11.857328778   11.841786924   11.840902252
    1.870736227   12.018753021   12.000714603   11.999678036
    1.937512521   12.193685312   12.172758226   12.171545781
    2.004288815   12.383601657   12.359316950   12.357899933
    2.071065109   12.590232969   12.562025787   12.560369625
    2.137841402   12.815624116   12.782808794   12.780871506
    2.204617696   13.062210993   13.023948104   13.021678284
    2.271393990   13.332922639   13.288174820   13.285508930
    2.338170284   13.631318819   13.578790714   13.575649402
    2.404946578   13.961778989   13.899834274   13.896117297
    2.471722871   14.329767547   14.256312322   14.251891410
    2.538499165   14.742215681   14.654531466   14.649240111
    2.605275459   15.208087404   15.102586987   15.096205530
    2.672051753   15.739247785   15.611110254   15.603343632
    2.738828047   16.351849115   16.194461024   16.184904755
    2.805604341   17.068648964   16.872724732   16.860811535
    2.872380634   17.923089744   17.675225410   17.660137718
    2.939156928   18.966802718   18.646745689   18.627250393
    3.005933222   20.282965017   19.854636252   19.828531538
    3.072709516   21.994354682   21.329968268   21.289314955
    3.139485810   24.102317080   22.745834761   22.661838194
    3.206262104   25.007079364   23.650484535   23.565838921
    3.273038397   24.237824814   24.458035995   24.471050294
    3.339814691   24.564613780   26.092523959   26.187546119
    3.406590985   25.942741079   28.271862565   28.416519838
    3.473367279   24.996428834   28.230479770   28.431073256
    3.540143573   22.479933376   26.407271178   26.649720644
    3.606919866   19.328609844   22.640187460   22.842801847
    3.673696160   19.876122656   21.872318632   21.996370339
    3.740472454   19.341168526   17.091822594   16.953166686
    3.807248748   14.103913776   12.861677212   12.783401845
    3.874025042   10.035603163   11.087723079   11.151848609
    3.940801336    8.033924627    8.777366168    8.825737347
    4.007577629    2.367173158    0.020120446   -0.124639338
    4.074353923   -2.259115385   -4.206386688   -4.324768315
    4.141130217   -2.637436984   -4.366455443   -4.471220706
    4.207906511   -4.082062924   -6.155359878   -6.283286512
    4.274682805   -6.533707852   -8.223803496   -8.330647948
    4.341459098   -7.740203133   -8.714585294   -8.776524891
    4.408235392  -12.017998493   -9.388878820   -9.224538092
    4.475011686  -11.199750057   -8.050903845   -7.854769623
    4.541787980   -8.479963919   -5.793236717   -5.626248513
    4.608564274   -6.342109446   -4.520870892   -4.408340701
    4.675340568   -4.925658485   -3.686121795   -3.609682262
    4.742116861   -3.676814671   -2.901046492   -2.853426450
    4.808893155   -2.290703726   -2.058302139   -2.044015005
    4.875669449   -1.412158862   -1.671126124   -1.687940487
    4.942445743   -0.793376501   -0.707078885   -0.701731081
    5.009222037    0.048879094    0.024500320    0.023062554
    5.075998331   -0.240901481    0.539029175    0.587820903
    5.142774624    0.432589230    0.999603481    1.034335791
    5.209550918    1.646359161    1.134314610    1.101670057
    5.276327212    1.348842127    0.771290199    0.733858620
    5.343103506    0.233269977   -0.051039497   -0.069024704
    5.409879800    0.990821118   -0.307869600   -0.389232036
    5.476656093    1.842501077   -0.627648825   -0.781365002
    5.543432387    1.391543991   -0.280163346   -0.384240879
    5.610208681    0.527651829    0.007530578   -0.024212391
    5.676984975    0.891022426    0.072348176    0.021734641
    5.743761269    1.565778365    0.231468552    0.148409090
    5.810537563    1.732995825    0.214018180    0.119558560
    5.877313856    2.237410683   -0.002148425   -0.143252655
    5.944090150    1.278487692   -0.181046374   -0.273177232
    6.010866444    0.303699435    0.109218496    0.097533172
    6.077642738    0.644944701    0.740027617    0.745956079
    6.144419032    1.442141083    1.245290730    1.233125811
    6.211195326    1.782277111    0.779651465    0.716952128
    6.277971619    2.280732818    0.782948383    0.689669649
    6.344747913    3.131008591    1.552746394    1.454561084
    6.411524207    3.985379940    2.420985177    2.323320148
    6.478300501    3.890408405    2.390534857    2.296158421
    6.545076795    3.745984431    2.382419573    2.297440542
    6.611853088    2.661635945    2.129573808    2.096796843
    6.678629382    1.416020342    1.498519691    1.504227411
    6.745405676    0.666555601    1.276486088    1.314442026
    6.812181970    0.463377169    1.363914521    1.419710441
    6.878958264    0.271948274    1.615196128    1.699143281
    6.945734558    0.981361213    2.083724566    2.152896036
    7.012510851    1.110842698    1.680999808    1.717104130
    7.079287145    1.404167431    1.494631297    1.500565832
    7.146063439    1.819296918    1.695869169    1.687505969
    7.212839733    1.966487133    2.021090550    2.024423414
    7.279616027    2.557449135    2.775929336    2.789837516
    7.346392321    3.154229954    3.249486818    3.255678934
    7.413168614    2.887810285    3.053377313    3.063307069
    7.479944908    2.818367354    2.699076969    2.691559111
    7.546721202    2.808005884    2.404795353    2.379789201
    7.613497496    2.880957858    2.929104027    2.932499731
    7.680273790    3.352990266    3.483006518    3.491325297
    7.747050083    2.845967865    3.263490834    3.289914514
    7.813826377    2.250877020    2.773949970    2.806923752
    7.880602671    2.546411866    2.434734770    2.427438986
    7.947378965    3.452529248    2.749548885    2.705476663
    8.014155259    3.576447918    3.370610490    3.357659127
    8.080931553    2.906226965    3.490345509    3.526578177
    8.147707846    2.498321629    3.183320838    3.226055672
    8.214484140    1.743022587    2.785820294    2.850519777
    8.281260434    2.039224972    2.814865488    2.863100501
    8.348036728    1.902306673    2.826771394    2.884247104
    8.414813022    2.458742809    3.149191221    3.192382601
    8.481589316    2.831451656    3.314560444    3.344823012
    8.548365609    2.811226492    3.328309979    3.360546950
    8.615141903    2.977644004    3.142776578    3.153312689
    8.681918197    2.916850854    3.106713421    3.118314821
    8.748694491    2.963153097    3.249338784    3.267074349
    8.815470785    3.120502313    2.793970389    2.773713702
    8.882247078    3.322719046    2.746008010    2.709839976
    8.949023372    3.439887161    3.013976541    2.987296070
    9.015799666    3.201037477    2.791664467    2.766226310
    9.082575960    2.950109649    2.631443816    2.611584589
    9.149352254    2.504684070    2.137887975    2.115640638
    9.216128548    2.305136779    1.944149930    1.921821521
    9.282904841    2.088562799    1.907113764    1.895813310
    9.349681135    2.171311909    2.170711099    2.170523587
    9.416457429    2.178902972    2.360831890    2.372321685
    9.483233723    1.393694093    1.810277238    1.836222096
    9.550010017    0.817382742    1.356132446    1.389695407
    9.616786311    1.126198601    1.156026032    1.157825749
    9.683562604    1.274770583    1.017210571    1.001017895
    9.750338898    1.326974423    1.180536831    1.171149828
    9.817115192    1.477453253    1.541477445    1.545387971
    9.883891486    1.534979608    1.581872891    1.584667276
    9.950667780    1.456900949    1.493927149    1.496641876
   10.017444073    1.875275216    1.650810057    1.637082027
   10.084220367    2.372388745    1.881066659    1.850139035
   10.150996661    2.318359327    2.217251623    2.210715333
   10.217772955    1.976949741    2.290815738    2.310498557
   10.284549249    1.760926376    1.951505845    1.963422654
   10.351325543    1.891215943    2.028124181    2.036041966
   10.418101836    1.927081503    2.283754179    2.305815309
   10.484878130    2.105939928    2.398433393    2.417526183
   10.551654424    1.937767276    1.831226605    1.825040073
   10.618430718    1.657470507    1.665335205    1.665933410
   10.685207012    1.749628863    1.805921689    1.810124870
   10.751983306    1.123023233    1.407315369    1.425045843
   10.818759599    0.466947112    1.044666240    1.080711445
   10.885535893    0.399129917    1.059038518    1.100220613
   10.952312187    0.457907268    1.188381442    1.233564348
   11.019088481    0.616096827    1.169872129    1.203854399
   11.085864775    0.866202996    1.073012397    1.085449686
   11.152641068    1.270085174    1.449253825    1.460387379
   11.219417362    1.424037391    1.545159371    1.552870340
   11.286193656    1.307140696    1.470539525    1.481053261
   11.352969950    1.335826542    1.512797060    1.523785267
   11.419746244    1.596401214    1.471907698    1.464054584
   11.486522538    1.668192466    1.200592514    1.171342205
   11.553298831    1.601925981    1.248356469    1.226612102
   11.620075125    1.382132643    1.395616190    1.396625713
   11.686851419    1.415738560    1.352204562    1.348233912
   11.753627713    1.652050285    1.498094458    1.488493881
   11.820404007    1.474964708    1.711394431    1.726373786
   11.887180301    1.086525702    1.557082056    1.586636619
   11.953956594    1.111270559    1.372708560    1.388766774
   12.020732888    1.015315585    1.269134570    1.284932289
   12.087509182    1.145825259    1.272889338    1.281060270
   12.154285476    1.247356775    1.175326574    1.171158786
   12.221061770    1.217942204    1.033666454    1.022275371
   12.287838063    1.252980147    1.119274715    1.110924745
   12.354614357    1.529151169    1.457504650    1.453014119
   12.421390651    1.802205270    1.644671842    1.634798944
   12.488166945    2.109900104    1.925480454    1.913953668
   12.554943239    2.201340022    2.125073865    2.120289742
   12.621719533    2.380295169    2.030316003    2.008635834
   12.688495826    2.551028464    2.151726627    2.126671813
   12.755272120    2.737212029    2.299983336    2.272679199
   12.822048414    2.797143282    2.410215976    2.385955788
   12.888824708    2.420557664    2.226183766    2.213855520
   12.955601002    2.577523952    2.500066331    2.495257527
   13.022377295    2.939579937    2.786483826    2.776922111
   13.089153589    3.271391370    3.043314253    3.028836096
   13.155929883    3.317834939    3.136050485    3.124203000
   13.222706177    2.959563883    2.795765501    2.785443675
   13.289482471    2.615708020    2.715531847    2.722021926
   13.356258765    2.681238858    2.810875500    2.818879490
   13.423035058    3.001615926    2.756632286    2.741259880
   13.489811352    3.290269970    2.909656912    2.885948706
   13.556587646    2.988973362    2.781837656    2.769292738
   13.623363940    2.883123918    2.650147453    2.635599494
   13.690140234    2.652953737    2.450106841    2.437112892
   13.756916528    2.363408186    2.103826503    2.087537966
   13.823692821    2.430505449    1.817053828    1.779155062
   13.890469115    1.933450082    1.593977626    1.572766163
   13.957245409    1.953023479    1.671491463    1.653685246
   14.024021703    1.879045745    1.441621997    1.414105794
   14.090797997    0.984121589    1.034112261    1.037163715
   14.157574290    0.228199353    0.916470911    0.959778667
   14.224350584    0.327512487    0.797242257    0.826497479
   14.291126878    0.578451704    0.627908236    0.631036525
   14.357903172    0.748818333    0.633000931    0.625387017
   14.424679466    0.495148012    0.307912979    0.295920986
   14.491455760    0.100866355    0.191479975    0.196913023
   14.558232053   -0.375965541    0.225359310    0.262704572
   14.625008347   -0.394783599    0.294911940    0.338081062
   14.691784641   -0.243409300    0.450452414    0.493922365
   14.758560935   -0.291117180    0.610253777    0.666484389
   14.825337229   -0.381880774    0.527668910    0.584319151
   14.892113523   -0.517450474   -0.063983141   -0.035171455
   14.958889816   -0.289898923   -0.127732547   -0.117477084
   15.025666110   -0.600847581   -0.216311366   -0.192307800
   15.092442404   -0.714903887   -0.115210736   -0.077748716
   15.159218698   -0.817492198   -0.250446934   -0.214954386
   15.225994992   -0.564049430   -0.333566752   -0.319245494
   15.292771285   -0.494220749   -0.350410187   -0.341187214
   15.359547579   -1.292026075   -1.157723831   -1.149535145
   15.426323873   -1.430003711   -1.294191289   -1.285562198
   15.493100167   -0.920876433   -0.700756736   -0.686771947
   15.559876461   -0.981743495   -0.898156754   -0.892512386
   15.626652755   -0.838359415   -0.948657669   -0.955527168
   15.693429048   -0.779768964   -0.891551888   -0.898724954
   15.760205342   -0.782646560   -0.859253642   -0.864269576
   15.826981636   -0.645769740   -0.760456561   -0.767607108
   15.893757930   -0.466085476   -0.561067826   -0.566728486
   15.960534224   -0.500932903   -0.604074303   -0.610498449
   16.027310518   -0.667535451   -0.516512751   -0.507061441
   16.094086811   -0.612728752   -0.451155783   -0.440881304
   16.160863105   -0.532675741   -0.681615572   -0.690742789
   16.227639399   -0.541349461   -0.784241204   -0.799671247
   16.294415693   -0.383841789   -0.837825183   -0.866204054
   16.361191987   -0.284657050   -0.653665178   -0.676742574
   16.427968280   -0.324307092   -0.641359330   -0.661060019
   16.494744574   -0.214362903   -0.534474798   -0.554678719
   16.561520868    0.179380860   -0.244740145   -0.271314379
   16.628297162    0.326590355    0.011136346   -0.008516270
   16.695073456   -0.137579943   -0.051419044   -0.046101505
   16.761849750   -0.248679813   -0.097647866   -0.088213995
   16.828626043   -0.155879735   -0.205626594   -0.208857381
   16.895402337   -0.079754744   -0.561608685   -0.591852386
   16.962178631   -0.009942131   -0.452653578   -0.480183548
   17.028954925    0.252940487   -0.230013652   -0.260167605
   17.095731219   -0.127143229   -0.192092643   -0.196021863
   17.162507513   -0.722596517   -0.236809672   -0.206392015
   17.229283806   -0.997666571   -0.509568180   -0.479145394
   17.296060100   -0.999881021   -0.731801803   -0.715152166
   17.362836394   -0.973006559   -0.875599496   -0.869489676
   17.429612688   -0.831302694   -0.668218438   -0.658076918
   17.496388982   -0.701519514   -0.648346655   -0.645025109
   17.563165275   -0.742757310   -0.678858257   -0.674801443
   17.629941569   -0.796436807   -0.828174166   -0.830205448
   17.696717863   -0.896683575   -1.072916639   -1.083802591
   17.763494157   -0.783674118   -1.038580802   -1.054317821
   17.830270451   -0.768321936   -0.932132360   -0.942484718
   17.897046745   -0.702205333   -0.753362488   -0.756695791
   17.963823038   -0.619174112   -0.763183743   -0.772212548
   18.030599332   -0.835698316   -0.837838024   -0.837861161
   18.097375626   -0.931990141   -0.800408090   -0.792157232
   18.164151920   -0.887548536   -0.726233906   -0.716247614
   18.230928214   -0.868074884   -0.665657490   -0.652966675
   18.297704508   -1.025503948   -0.757171508   -0.740598696
   18.364480801   -0.977627064   -0.898442620   -0.893642145
   18.431257095   -0.736645651   -0.912709257   -0.923610633
   18.498033389   -0.653179914   -0.749770319   -0.755627859
   18.564809683   -0.660994758   -0.692863301   -0.694948500
   18.631585977   -0.833104848   -0.794759324   -0.792538262
   18.698362270   -0.757699087   -0.850058008   -0.855774821
   18.765138564   -0.629997614   -0.727216276   -0.733206537
   18.831914858   -0.618976228   -0.654422409   -0.656479319
   18.898691152   -0.825754012   -0.874209354   -0.877175933
   18.965467446   -0.943143017   -1.018513407   -1.023260488
   19.032243740   -0.889472881   -1.013879895   -1.021674656
   19.099020033   -1.009586291   -1.159168312   -1.168505060
   19.165796327   -0.975465450   -1.140145230   -1.150516347
   19.232572621   -1.028614377   -0.976571445   -0.973577335
   19.299348915   -1.210657674   -1.068669038   -1.059663507
   19.366125209   -1.273058718   -1.203933394   -1.199495861
   19.432901503   -1.586076807   -1.401052936   -1.389594171
   19.499677796   -1.772149071   -1.608245299   -1.597793881
   19.566454090   -1.751427368   -1.703812805   -1.700823812
   19.633230384   -1.583187324   -1.552210918   -1.550328140
   19.700006678   -1.368188348   -1.437954702   -1.442383838
   19.766782972   -1.271095984   -1.301196722   -1.303054603
   19.833559265   -1.185283281   -1.211942687   -1.213650561
   19.900335559   -1.282369620   -1.265674710   -1.264768232
   19.967111853   -1.271975912   -1.278226865   -1.278635701
   20.033888147   -1.187230552   -1.130816492   -1.127339920
   20.100664441   -1.165108643   -1.133125818   -1.131179269
   20.167440735   -1.155794706   -1.248492579   -1.254104033
   20.234217028   -1.129045342   -1.233707697   -1.240100163
   20.300993322   -1.120212939   -1.156066027   -1.158332356
   20.367769616   -1.015983700   -1.031920953   -1.032917705
   20.434545910   -1.088271097   -1.026667545   -1.022740708
   20.501322204   -1.161625524   -1.021266042   -1.012574940
   20.568098497   -0.999254657   -0.991938478   -0.991457889
   20.634874791   -0.885168813   -1.024316735   -1.032996467
   20.701651085   -0.887845668   -1.024744903   -1.033278775
   20.768427379   -0.954347420   -0.994421626   -0.996953019
   20.835203673   -0.977163819   -0.970837609   -0.970518930
   20.901979967   -1.029136383   -0.959833092   -0.955473531
   20.968756260   -0.978149580   -0.934324045   -0.931605182
   21.035532554   -0.885989277   -0.886383391   -0.886433859
   21.102308848   -0.814614677   -0.829605496   -0.830588195
   21.169085142   -0.857429429   -0.751265793   -0.744658876
   21.235861436   -0.799428289   -0.658808976   -0.650023180
   21.302637730   -0.710999744   -0.624115080   -0.618731554
   21.369414023   -0.696214696   -0.649773331   -0.646875222
   21.436190317   -0.764654497   -0.644253306   -0.636727722
   21.502966611   -0.739531467   -0.692350998   -0.689393909
   21.569742905   -0.639591020   -0.715371438   -0.720072591
   21.636519199   -0.592895644   -0.694513351   -0.700820185
   21.703295492   -0.578362501   -0.677014971   -0.683165312
   21.770071786   -0.564367669   -0.598425173   -0.600543274
