# energy grid [eV]     epsr_x  epsr_y  epsr_z
#
    0.001000000   10.214028543   10.213060788   10.213013410
    0.067776294   10.215859027   10.214878110   10.214829917
    0.134552588   10.221250190   10.220230418   10.220179821
    0.201328881   10.230220334   10.229135607   10.229080989
    0.268105175   10.242800029   10.241623567   10.241563271
    0.334881469   10.259032409   10.257736461   10.257668770
    0.401657763   10.278973576   10.277529121   10.277452237
    0.468434057   10.302693146   10.301069560   10.300981587
    0.535210351   10.330274928   10.328439634   10.328338553
    0.601986644   10.361817763   10.359735832   10.359619480
    0.668762938   10.397436526   10.395070244   10.394936283
    0.735539232   10.437263322   10.434571700   10.434417590
    0.802315526   10.481448907   10.478387122   10.478210084
    0.869091820   10.530164340   10.526683102   10.526480078
    0.935868114   10.583602935   10.579647752   10.579415363
    1.002644407   10.641982536   10.637492872   10.637227362
    1.069420701   10.705548186   10.700456469   10.700153644
    1.136196995   10.774575242   10.768805713   10.768460871
    1.202973289   10.849373043   10.842840392   10.842448237
    1.269749583   10.930289220   10.922896969   10.922451510
    1.336525876   11.017714777   11.009353357   11.008847790
    1.403302170   11.112090117   11.102634561   11.102061123
    1.470078464   11.213912209   11.203219365   11.202569164
    1.536854758   11.323743156   11.311648311   11.310911113
    1.603631052   11.442220495   11.428533247   11.427697220
    1.670407346   11.570069655   11.554568834   11.553620233
    1.737183639   11.708119125   11.690546502   11.689469277
    1.803959933   11.857319056   11.837371487   11.836146794
    1.870736227   12.018764264   11.996083794   11.994689379
    1.937512521   12.193722926   12.167884209   12.166293628
    2.004288815   12.383672731   12.354166889   12.352348500
    2.071065109   12.590346917   12.556560598   12.554476262
    2.137841402   12.815793625   12.776981515   12.774584883
    2.204617696   13.062453444   13.017701717   13.014935959
    2.271393990   13.333262283   13.281439321   13.278234059
    2.338170284   13.631790213   13.571479097   13.567746206
    2.404946578   13.962432553   13.891836968   13.887464725
    2.471722871   14.330678866   14.247489354   14.242334120
    2.538499165   14.743501637   14.644701283   14.638575423
    2.605275459   15.209935292   15.091510320   15.084164206
    2.672051753   15.741970238   15.598466659   15.589561115
    2.738828047   16.355992692   16.179814818   16.168877531
    2.805604341   17.075218098   16.855475982   16.841829902
    2.872380634   17.934013176   17.654536331   17.637176327
    2.939156928   18.985740809   18.621357880   18.598719680
    3.005933222   20.314010440   19.821397702   19.790787758
    3.072709516   21.993331817   21.266729833   21.221546404
    3.139485810   23.616731190   22.523514864   22.455401980
    3.206262104   24.620764711   23.512756638   23.443512798
    3.273038397   24.836262753   24.676391300   24.666334333
    3.339814691   25.278571218   26.689112559   26.777156128
    3.406590985   25.971916979   28.943681807   29.129050878
    3.473367279   24.357240971   27.784088623   27.997369470
    3.540143573   21.923553396   26.013273625   26.268179538
    3.606919866   20.861763315   23.397674708   23.555665253
    3.673696160   19.797669907   20.569562316   20.617360103
    3.740472454   16.854663838   16.793718971   16.789310633
    3.807248748   15.828486723   15.029998883   14.980385639
    3.874025042   11.514845183   11.489054979   11.487799726
    3.940801336    7.026576187    6.564655288    6.536538558
    4.007577629    2.449561779    0.973561323    0.882337888
    4.074353923   -2.224567264   -4.820628141   -4.982710231
    4.141130217   -4.460923837   -7.234254972   -7.407387220
    4.207906511   -5.688291024   -7.487589666   -7.599694660
    4.274682805   -7.027922115   -7.858566075   -7.910132702
    4.341459098   -8.222392502   -7.286489483   -7.227740691
    4.408235392   -9.175456304   -7.055052193   -6.922311247
    4.475011686   -9.358018544   -6.532836394   -6.356606052
    4.541787980   -7.719891009   -5.273490655   -5.121068751
    4.608564274   -5.686157291   -4.031418366   -3.928446872
    4.675340568   -4.221987385   -3.109268889   -3.040129344
    4.742116861   -3.279524276   -2.146410260   -2.075770605
    4.808893155   -3.022234578   -1.705934840   -1.623845458
    4.875669449   -2.583935619   -1.641537777   -1.582661265
    4.942445743   -1.558496479   -1.761692860   -1.774596943
    5.009222037   -0.834577240   -1.064317522   -1.078736855
    5.075998331   -0.248493617   -0.251376997   -0.251632003
    5.142774624   -0.324196094   -0.050466171   -0.033504585
    5.209550918   -0.065886712   -0.247712035   -0.259292473
    5.276327212    0.470168675   -0.633608439   -0.702736419
    5.343103506    1.437051625   -0.518228233   -0.640428540
    5.409879800    1.742150940   -0.328966006   -0.458395831
    5.476656093    1.656212998   -0.019129200   -0.123732799
    5.543432387    1.844207974    0.372973681    0.281121611
    5.610208681    1.462021063    0.281759720    0.208026252
    5.676984975    0.859875946    0.237691700    0.198932604
    5.743761269    1.385477657    0.474606142    0.417702511
    5.810537563    1.630715362    0.457256402    0.383903412
    5.877313856    2.009511334    0.751487817    0.672956776
    5.944090150    2.373324798    1.378214390    1.316075533
    6.010866444    2.142576739    1.142006558    1.079408454
    6.077642738    1.697544953    0.560519979    0.489344070
    6.144419032    2.047899160    0.838822335    0.763281949
    6.211195326    2.134841232    0.956989395    0.883476383
    6.277971619    2.023958271    0.846096359    0.772436396
    6.344747913    1.932359396    1.052292809    0.997257967
    6.411524207    2.115274038    1.521781689    1.484745177
    6.478300501    2.297616091    1.369105929    1.311119746
    6.545076795    1.671202290    1.370537837    1.351737738
    6.611853088    0.939671939    1.636753059    1.680362593
    6.678629382    1.014696779    1.834525770    1.885726748
    6.745405676    1.478469835    1.903235632    1.929839593
    6.812181970    1.990156764    1.946733350    1.944035420
    6.878958264    2.060210456    1.921721619    1.913128711
    6.945734558    2.344748730    2.283149002    2.279334353
    7.012510851    2.126036446    2.119256326    2.118874220
    7.079287145    1.890507536    2.138630072    2.154160655
    7.146063439    1.779672700    2.114085233    2.134946661
    7.212839733    2.064642660    2.137086128    2.141646269
    7.279616027    2.251916278    2.151034046    2.144745474
    7.346392321    2.537909818    2.382566645    2.372820557
    7.413168614    2.586363862    2.745757466    2.755706792
    7.479944908    2.635267416    2.690115961    2.693638090
    7.546721202    2.725192635    2.635339421    2.629777790
    7.613497496    2.617722940    2.695403799    2.700254774
    7.680273790    2.849647123    3.045761472    3.058033776
    7.747050083    2.787241327    3.156103165    3.179136636
    7.813826377    2.801848522    3.348803070    3.383008434
    7.880602671    2.466552297    3.067786089    3.105357666
    7.947378965    2.377567281    2.713969332    2.734947277
    8.014155259    2.684234333    2.824654449    2.833482511
    8.080931553    2.384962552    2.792686277    2.818077626
    8.147707846    2.500777975    2.896728233    2.921427710
    8.214484140    2.794577637    3.072340377    3.089640002
    8.281260434    2.842706090    2.986064097    2.994968416
    8.348036728    3.051107635    3.281160388    3.295471612
    8.414813022    2.950815677    3.688545790    3.734649112
    8.481589316    2.692000351    3.558668755    3.612862130
    8.548365609    2.853390683    3.206590063    3.228664256
    8.615141903    3.151726081    3.186130046    3.188289085
    8.681918197    3.180371859    3.255314339    3.259953214
    8.748694491    3.232305480    3.183170989    3.180079270
    8.815470785    3.017435758    2.835903888    2.824586431
    8.882247078    2.702391371    2.781219931    2.786173363
    8.949023372    2.474035108    2.680106035    2.692963732
    9.015799666    2.290605170    2.502872313    2.516123739
    9.082575960    2.318176816    2.218681894    2.212457804
    9.149352254    2.481610503    2.179108057    2.160220351
    9.216128548    2.619283016    2.252787418    2.229937020
    9.282904841    2.601713391    2.067581256    2.034208167
    9.349681135    2.165699999    1.839663072    1.819289365
    9.416457429    1.745309371    1.792254442    1.795182386
    9.483233723    1.481672816    1.622890294    1.631722046
    9.550010017    1.274194589    1.439535634    1.449876347
    9.616786311    1.180502414    1.269219640    1.274777984
    9.683562604    1.377273766    1.381269532    1.381532468
    9.750338898    1.727183307    1.703153001    1.701604109
    9.817115192    2.068762135    1.749497709    1.729528055
    9.883891486    2.373058519    1.821711006    1.787304670
    9.950667780    1.845011281    1.775405026    1.771109278
   10.017444073    1.687192526    1.839208841    1.848692782
   10.084220367    1.978380780    2.017172173    2.019464416
   10.150996661    1.984905041    1.978449365    1.977935633
   10.217772955    2.007480486    1.838511607    1.828132821
   10.284549249    1.982981687    1.875332241    1.868750198
   10.351325543    1.494882689    1.907758693    1.933648264
   10.418101836    1.155181744    1.761603014    1.799544550
   10.484878130    1.074097144    1.705757838    1.745150609
   10.551654424    1.229544706    1.699776955    1.729077490
   10.618430718    1.389927130    1.810722121    1.836982194
   10.685207012    1.348957075    1.693774877    1.715362075
   10.751983306    1.342302173    1.724635940    1.748446338
   10.818759599    1.155156745    1.531621847    1.555133947
   10.885535893    1.096854376    1.098004560    1.098077570
   10.952312187    1.185033467    1.162183799    1.160687973
   11.019088481    1.375371314    1.479405693    1.485799223
   11.085864775    1.604696361    1.399132235    1.386293177
   11.152641068    1.645921333    1.339564502    1.320449759
   11.219417362    1.311624054    1.404732153    1.410580330
   11.286193656    1.040446882    1.448065465    1.473533734
   11.352969950    1.123861872    1.589981050    1.619154101
   11.419746244    1.141050994    1.468608131    1.489171312
   11.486522538    1.042597382    1.200434337    1.210294313
   11.553298831    1.126367730    1.340073717    1.353443520
   11.620075125    1.108375621    1.392852016    1.410682504
   11.686851419    1.270074316    1.372529721    1.378906963
   11.753627713    1.542533506    1.501588129    1.499010472
   11.820404007    1.509133003    1.518801207    1.519432192
   11.887180301    1.406951311    1.383955366    1.382520599
   11.953956594    1.264409347    1.261867959    1.261770656
   12.020732888    1.091356805    1.163402716    1.167954420
   12.087509182    1.112785432    1.094081540    1.092932101
   12.154285476    1.327183120    1.260825596    1.256701312
   12.221061770    1.525307514    1.370028509    1.360337587
   12.287838063    1.591141269    1.310174585    1.292675336
   12.354614357    1.669290081    1.359772426    1.340451084
   12.421390651    1.826589628    1.633739935    1.621661107
   12.488166945    1.991876436    1.872711903    1.865208996
   12.554943239    2.164340080    2.000772158    1.990486095
   12.621719533    2.333102159    2.077833748    2.061847269
   12.688495826    2.432661170    2.129558571    2.110599783
   12.755272120    2.429735047    2.319027532    2.312133582
   12.822048414    2.474207612    2.408521881    2.404398842
   12.888824708    2.676260587    2.453716567    2.439811326
   12.955601002    2.826899767    2.563361123    2.546886882
   13.022377295    2.897309674    2.658824749    2.643879466
   13.089153589    2.909008353    2.716889845    2.704917782
   13.155929883    2.876856672    2.699385468    2.688278359
   13.222706177    3.026157896    2.777176281    2.761603226
   13.289482471    3.099815797    2.919933151    2.908662188
   13.356258765    2.983472523    2.906039764    2.901156428
   13.423035058    3.059255489    3.006231817    3.002927357
   13.489811352    3.143232082    2.983681019    2.973750637
   13.556587646    3.124887012    2.957738395    2.947317634
   13.623363940    2.965869880    2.685186555    2.667641768
   13.690140234    2.683936496    2.449373804    2.434731744
   13.756916528    2.333334320    2.289754669    2.287009574
   13.823692821    2.037062125    1.946466142    1.940792727
   13.890469115    1.846060168    1.575758277    1.558838809
   13.957245409    1.774885925    1.413194586    1.390602711
   14.024021703    1.611554910    1.328581604    1.310892393
   14.090797997    1.057171356    1.051448062    1.051098371
   14.157574290    0.811319871    0.839268452    0.841037104
   14.224350584    0.771794615    0.805224884    0.807292605
   14.291126878    0.635924577    0.690491895    0.693803850
   14.357903172    0.453917797    0.527095266    0.531643199
   14.424679466    0.171789261    0.353881683    0.365207073
   14.491455760    0.000019951    0.209212789    0.222233564
   14.558232053   -0.147050570    0.230920635    0.254580642
   14.625008347   -0.325315593    0.308510994    0.348101096
   14.691784641   -0.324126296    0.392741560    0.437570247
   14.758560935   -0.231010838    0.390768053    0.429609552
   14.825337229   -0.347174525    0.210762963    0.245582473
   14.892113523   -0.457810361    0.154250363    0.192510118
   14.958889816   -0.350499469    0.023360396    0.046695153
   15.025666110   -0.396914302   -0.151819260   -0.136462125
   15.092442404   -0.847426648   -0.415149099   -0.388115834
   15.159218698   -1.022550641   -0.441564626   -0.405231294
   15.225994992   -0.876021393   -0.383794237   -0.353006304
   15.292771285   -0.872475899   -0.486647367   -0.462488465
   15.359547579   -0.938490275   -0.560470367   -0.536774714
   15.426323873   -1.018920394   -0.614109707   -0.588790790
   15.493100167   -0.864209469   -0.692381820   -0.681644406
   15.559876461   -0.745767602   -0.830496414   -0.835752835
   15.626652755   -0.763983312   -0.835917741   -0.840420568
   15.693429048   -0.941550677   -0.900778583   -0.898241602
   15.760205342   -0.889211323   -0.961849452   -0.966355177
   15.826981636   -0.757234429   -0.928684296   -0.939374767
   15.893757930   -0.792254027   -1.005012580   -1.018288590
   15.960534224   -0.688792429   -0.891077568   -0.903710989
   16.027310518   -0.586345237   -0.676012379   -0.681592939
   16.094086811   -0.538986274   -0.625940228   -0.631372877
   16.160863105   -0.406489594   -0.590964956   -0.602505753
   16.227639399   -0.334957789   -0.515932997   -0.527278785
   16.294415693   -0.327939974   -0.558667037   -0.573083879
   16.361191987   -0.267450751   -0.509016795   -0.524096947
   16.427968280   -0.257137894   -0.506913855   -0.522540304
   16.494744574   -0.203455086   -0.424418383   -0.438243738
   16.561520868   -0.026733926   -0.398596449   -0.421835646
   16.628297162    0.048541880   -0.298815478   -0.320539557
   16.695073456    0.070721206   -0.254387053   -0.274701059
   16.761849750    0.108852076   -0.248292230   -0.270588881
   16.828626043   -0.035554473   -0.218214759   -0.229641802
   16.895402337   -0.159263802   -0.248182984   -0.253751365
   16.962178631   -0.331683638   -0.365112695   -0.367214670
   17.028954925   -0.322484349   -0.283977977   -0.281592595
   17.095731219   -0.344049790   -0.331556731   -0.330773418
   17.162507513   -0.443944303   -0.370069491   -0.365466055
   17.229283806   -0.503365541   -0.338183638   -0.327880760
   17.296060100   -0.525457575   -0.505603513   -0.504366638
   17.362836394   -0.597971756   -0.589869219   -0.589353174
   17.429612688   -0.877455124   -0.639887184   -0.625024630
   17.496388982   -0.998619836   -0.738343177   -0.722055626
   17.563165275   -0.895736345   -0.811962425   -0.806744746
   17.629941569   -0.879889188   -0.796989843   -0.791755718
   17.696717863   -0.924675369   -0.811194136   -0.804069038
   17.763494157   -0.902737425   -0.973298130   -0.977688763
   17.830270451   -0.889065178   -0.960086448   -0.964550060
   17.897046745   -0.774796367   -0.814651578   -0.817153017
   17.963823038   -0.718109593   -0.822085795   -0.828588878
   18.030599332   -0.766815145   -0.837633310   -0.842075689
   18.097375626   -0.885142093   -0.838784097   -0.835899554
   18.164151920   -0.920905542   -0.918439006   -0.918319812
   18.230928214   -0.818703138   -0.900217531   -0.905330000
   18.297704508   -0.871972426   -0.987362791   -0.994573043
   18.364480801   -0.868740050   -0.918675805   -0.921802694
   18.431257095   -0.815974792   -0.845602927   -0.847452731
   18.498033389   -0.764047156   -0.794757818   -0.796656189
   18.564809683   -0.765082441   -0.756156823   -0.755594099
   18.631585977   -0.853426178   -0.767966396   -0.762606155
   18.698362270   -0.795100804   -0.762216798   -0.760166622
   18.765138564   -0.693213099   -0.701822175   -0.702345864
   18.831914858   -0.837817954   -0.829154564   -0.828607335
   18.898691152   -0.859656841   -0.939616521   -0.944608145
   18.965467446   -0.867874404   -0.971941085   -0.978465602
   19.032243740   -0.883538093   -0.923201494   -0.925700186
   19.099020033   -0.967179111   -0.918093384   -0.915031484
   19.165796327   -0.940953328   -0.909402033   -0.907444263
   19.232572621   -0.947181170   -0.930926539   -0.929947427
   19.299348915   -1.083617184   -1.094937733   -1.095575704
   19.366125209   -1.285326039   -1.294073156   -1.294629211
   19.432901503   -1.336734696   -1.360031206   -1.361493896
   19.499677796   -1.367793437   -1.415751610   -1.418746668
   19.566454090   -1.435516862   -1.488900309   -1.492224572
   19.633230384   -1.406100581   -1.449490673   -1.452199480
   19.700006678   -1.424398958   -1.433891458   -1.434484683
   19.766782972   -1.473251336   -1.449158155   -1.447646098
   19.833559265   -1.448603067   -1.404444788   -1.401667916
   19.900335559   -1.441076335   -1.385182057   -1.381670471
   19.967111853   -1.395812948   -1.336335500   -1.332630410
   20.033888147   -1.360508544   -1.238463899   -1.230856085
   20.100664441   -1.292051591   -1.177814198   -1.170687099
   20.167440735   -1.270443388   -1.204122354   -1.199978276
   20.234217028   -1.258945134   -1.231992950   -1.230318864
   20.300993322   -1.185512351   -1.187780624   -1.187922561
   20.367769616   -1.125530534   -1.132536065   -1.132975051
   20.434545910   -1.030487131   -1.013331188   -1.012249344
   20.501322204   -0.995637730   -0.980062290   -0.979086686
   20.568098497   -0.917351436   -0.930346508   -0.931149978
   20.634874791   -0.814236674   -0.888769133   -0.893421855
   20.701651085   -0.879973358   -0.936590159   -0.940120589
   20.768427379   -1.007784150   -0.990891501   -0.989846697
   20.835203673   -1.032471169   -1.009623270   -1.008207052
   20.901979967   -1.033295160   -1.017185719   -1.016175622
   20.968756260   -0.944574302   -0.941936606   -0.941767787
   21.035532554   -0.851249353   -0.887853918   -0.890144849
   21.102308848   -0.771275150   -0.811750142   -0.814284255
   21.169085142   -0.704998531   -0.756305831   -0.759503075
   21.235861436   -0.693180141   -0.756575260   -0.760535560
   21.302637730   -0.701296203   -0.706863083   -0.707229850
   21.369414023   -0.680081247   -0.668551250   -0.667838782
   21.436190317   -0.666036745   -0.646433094   -0.645209337
   21.502966611   -0.699084909   -0.659550908   -0.657072812
   21.569742905   -0.668806273   -0.675468276   -0.675880619
   21.636519199   -0.602800585   -0.641838897   -0.644281614
   21.703295492   -0.588783656   -0.644634724   -0.648126033
   21.770071786   -0.573880077   -0.613026500   -0.615465296
