# energy grid [eV]     epsi_x  epsi_y  epsi_z
#
    0.001000000    0.000054114    0.000053723    0.000053699
    0.034387312    0.001861108    0.001847662    0.001846823
    0.067774624    0.003669679    0.003643142    0.003641486
    0.101161937    0.005481359    0.005441663    0.005439186
    0.134549249    0.007297691    0.007244732    0.007241427
    0.167936561    0.009120226    0.009053866    0.009049725
    0.201323873    0.010950531    0.010870596    0.010865608
    0.234711185    0.012790192    0.012696471    0.012690623
    0.268098497    0.014640815    0.014533062    0.014526338
    0.301485810    0.016504034    0.016381963    0.016374346
    0.334873122    0.018381512    0.018244798    0.018236267
    0.368260434    0.020274947    0.020123226    0.020113758
    0.401647746    0.022186077    0.022018939    0.022008509
    0.435035058    0.024116681    0.023933673    0.023922253
    0.468422371    0.026068587    0.025869210    0.025856769
    0.501809683    0.028043676    0.027827383    0.027813886
    0.535196995    0.030043888    0.029810079    0.029795489
    0.568584307    0.032071227    0.031819248    0.031803523
    0.601971619    0.034127764    0.033856905    0.033840002
    0.635358932    0.036215651    0.035925139    0.035907010
    0.668746244    0.038337118    0.038026118    0.038006710
    0.702133556    0.040494488    0.040162094    0.040141351
    0.735520868    0.042690180    0.042335414    0.042313274
    0.768908180    0.044926718    0.044548523    0.044524921
    0.802295492    0.047206742    0.046803978    0.046778842
    0.835682805    0.049533014    0.049104449    0.049077704
    0.869070117    0.051908431    0.051452738    0.051424299
    0.902457429    0.054336034    0.053851782    0.053821561
    0.935844741    0.056819022    0.056304666    0.056272566
    0.969232053    0.059360761    0.058814637    0.058780553
    1.002619366    0.061964803    0.061385113    0.061348934
    1.036006678    0.064634895    0.064019703    0.063981308
    1.069393990    0.067375004    0.066722217    0.066681475
    1.102781302    0.070189325    0.069496685    0.069453455
    1.136168614    0.073082308    0.072347375    0.072301505
    1.169555927    0.076058676    0.075278812    0.075230137
    1.202943239    0.079123451    0.078295802    0.078244144
    1.236330551    0.082281977    0.081403455    0.081348622
    1.269717863    0.085539951    0.084607210    0.084548991
    1.303105175    0.088903452    0.087912864    0.087851034
    1.336492487    0.092378977    0.091326605    0.091260918
    1.369879800    0.095973481    0.094855048    0.094785237
    1.403267112    0.099694415    0.098505271    0.098431046
    1.436654424    0.103549776    0.102284860    0.102205903
    1.470041736    0.107548159    0.106201954    0.106117923
    1.503429048    0.111698814    0.110265302    0.110175820
    1.536816361    0.116011714    0.114484320    0.114388977
    1.570203673    0.120497624    0.118869155    0.118767501
    1.603590985    0.125168182    0.123430760    0.123322305
    1.636978297    0.130035995    0.128180980    0.128065182
    1.670365609    0.135114740    0.133132637    0.133008905
    1.703752922    0.140419277    0.138299640    0.138167321
    1.737140234    0.145965788    0.143697102    0.143555478
    1.770527546    0.151771919    0.149341472    0.149189748
    1.803914858    0.157856954    0.155250686    0.155087984
    1.837302170    0.164242010    0.161444338    0.161269686
    1.870689482    0.170950257    0.167943881    0.167756198
    1.904076795    0.178007175    0.174772843    0.174570928
    1.937464107    0.185440848    0.181957094    0.181739605
    1.970851419    0.193282303    0.189525135    0.189290576
    2.004238731    0.201565910    0.197508448    0.197255140
    2.037626043    0.210329835    0.205941890    0.205667948
    2.071013356    0.219616587    0.214864161    0.214567462
    2.104400668    0.229473644    0.224318345    0.223996492
    2.137787980    0.239954208    0.234352553    0.234002832
    2.171175292    0.251118091    0.245020677    0.244640002
    2.204562604    0.263032771    0.256383288    0.255968145
    2.237949917    0.275774672    0.268508712    0.268055078
    2.271337229    0.289430694    0.281474316    0.280977576
    2.304724541    0.304100084    0.295368072    0.294822905
    2.338111853    0.319896721    0.310290456    0.309690705
    2.371499165    0.336951934    0.326356785    0.325695294
    2.404886477    0.355418015    0.343700107    0.342968516
    2.438273790    0.375472618    0.362474811    0.361663312
    2.471661102    0.397324336    0.382861194    0.381958210
    2.505048414    0.421219856    0.405071277    0.404063067
    2.538435726    0.447453224    0.429356326    0.428226480
    2.571823038    0.476378016    0.456016714    0.454745500
    2.605210351    0.508423554    0.485415029    0.483978550
    2.638597663    0.544116876    0.517993823    0.516362909
    2.671984975    0.584113006    0.554300112    0.552438854
    2.705372287    0.629237554    0.595019951    0.592883728
    2.738759599    0.680548037    0.641028458    0.638561269
    2.772146912    0.739424466    0.693464346    0.690595136
    2.805534224    0.807707240    0.753844668    0.750482207
    2.838921536    0.887914314    0.824248357    0.820274032
    2.872308848    0.983596928    0.907622879    0.902880423
    2.905696160    1.099949035    1.008322504    1.002603306
    2.939083472    1.244905185    1.133105459    1.126127604
    2.972470785    1.431225273    1.293081255    1.284460071
    3.005858097    1.680625895    1.507631684    1.496837282
    3.039245409    2.031839090    1.811716143    1.797984171
    3.072632721    2.552041496    2.261841151    2.243742435
    3.106020033    3.322709745    2.895999650    2.869388242
    3.139407346    4.330840309    3.613233338    3.568462712
    3.172794658    5.439127924    4.258337002    4.184636376
    3.206181970    6.575359887    4.833770705    4.725027896
    3.239569282    7.664271349    5.411430436    5.270731291
    3.272956594    8.726085692    6.110322765    5.946945823
    3.306343907    9.877098614    7.034257613    6.856692475
    3.339731219   11.193634245    8.237497308    8.052848606
    3.373118531   12.663074778    9.797006522    9.617978728
    3.406505843   14.176568730   11.792921511   11.644033005
    3.439893155   15.749670432   14.231684740   14.136892688
    3.473280467   17.325822439   16.650023638   16.607850489
    3.506667780   18.577160361   18.705949517   18.714020568
    3.540055092   19.478900115   20.535346438   20.601324130
    3.573442404   20.331489224   22.130414686   22.242728652
    3.606829716   21.216657479   23.556319844   23.702386996
    3.640217028   22.074306066   24.926742819   25.104853147
    3.673604341   23.008514701   26.110036590   26.303733203
    3.706991653   24.270538853   27.171852973   27.353010948
    3.740378965   25.438918719   27.923300748   28.078355208
    3.773766277   26.347963691   28.394740122   28.522425798
    3.807153589   27.383568444   29.038142879   29.141331071
    3.840540902   28.459063890   29.709510739   29.787461146
    3.873928214   29.246570250   30.264161379   30.327543092
    3.907315526   29.926622318   31.102845505   31.176124105
    3.940702838   30.556869263   32.190876748   32.292826514
    3.974090150   30.886527602   32.885042773   33.009886567
    4.007477462   30.455909321   32.421673797   32.544558686
    4.040864775   29.003187240   30.522544851   30.617594562
    4.074252087   27.062846163   27.960318091   28.016534883
    4.107639399   25.458038955   25.590063530   25.598437691
    4.141026711   24.156506182   23.579482090   23.543522330
    4.174414023   22.998998823   21.725731150   21.646246737
    4.207801336   21.949256757   19.981025696   19.858108735
    4.241188648   20.958215627   18.455226494   18.298893136
    4.274575960   20.094475066   17.253469179   17.076023980
    4.307963272   19.097142049   16.090201492   15.902402799
    4.341350584   17.668026796   14.759409466   14.577764905
    4.374737896   15.899318356   13.429254930   13.275005689
    4.408125209   14.061975129   12.263311199   12.151029574
    4.441512521   12.257663304   11.269407374   11.207784954
    4.474899833   10.660381576   10.396001946   10.379608565
    4.508287145    9.482426224    9.703099364    9.717003538
    4.541674457    8.565754424    9.113850968    9.148189537
    4.575061770    7.759520953    8.522216296    8.569943453
    4.608449082    7.078462215    7.998544643    8.056089933
    4.641836394    6.589620638    7.597205325    7.660203775
    4.675223706    6.228395331    7.326371972    7.395013432
    4.708611018    5.916376227    7.136105526    7.212342147
    4.741998331    5.631425922    6.967018014    7.050476909
    4.775385643    5.411798998    6.841949904    6.931314043
    4.808772955    5.284160975    6.765311185    6.857867647
    4.842160267    5.250772482    6.688500306    6.778337630
    4.875547579    5.207509485    6.590997961    6.677441373
    4.908934891    5.118289823    6.528157535    6.616262932
    4.942322204    5.022789529    6.473590923    6.564256333
    4.975709516    4.875248136    6.376369678    6.470170839
    5.009096828    4.781723590    6.307204773    6.402523668
    5.042484140    4.774460531    6.300560120    6.395916008
    5.075871452    4.718256405    6.300761633    6.399639100
    5.109258765    4.574129363    6.205053871    6.306957686
    5.142646077    4.443665449    6.144053755    6.250304425
    5.176033389    4.353867609    6.178469015    6.292477261
    5.209420701    4.265112591    6.188706624    6.308899359
    5.242808013    4.195471899    6.115730865    6.235710496
    5.276195326    4.143592598    5.964058765    6.077788361
    5.309582638    4.175460993    5.818592896    5.921235742
    5.342969950    4.318765715    5.750267427    5.839690475
    5.376357262    4.427848285    5.725621006    5.806697316
    5.409744574    4.460904785    5.647478456    5.721606360
    5.443131886    4.522272051    5.473140855    5.532532304
    5.476519199    4.631108387    5.282269236    5.322927022
    5.509906511    4.790098930    5.189106636    5.214011303
    5.543293823    4.999300848    5.204338181    5.217133762
    5.576681135    5.187485966    5.264756086    5.269574544
    5.610068447    5.219681840    5.232122201    5.232892692
    5.643455760    5.117154436    5.157609058    5.160140004
    5.676843072    5.025383872    5.158984650    5.167338556
    5.710230384    4.918742194    5.097467819    5.108622573
    5.743617696    4.734276017    4.905599998    4.916281650
    5.777005008    4.593303660    4.737632051    4.746635741
    5.810392321    4.641088302    4.676617075    4.678835317
    5.843779633    4.805715564    4.658513180    4.649326358
    5.877166945    4.899372334    4.620634058    4.603233354
    5.910554257    4.825137798    4.521015386    4.502010253
    5.943941569    4.692495241    4.421294095    4.404329083
    5.977328881    4.612109599    4.371465263    4.356409868
    6.010716194    4.566330443    4.316291115    4.300660538
    6.044103506    4.483689430    4.221953409    4.205595818
    6.077490818    4.413670559    4.093761925    4.073763254
    6.110878130    4.419362369    4.021561449    3.996692440
    6.144265442    4.518675416    4.046570168    4.017063168
    6.177652755    4.674761825    4.102833396    4.067093752
    6.211040067    4.752644158    4.146793733    4.108932285
    6.244427379    4.754894996    4.196569062    4.161670082
    6.277814691    4.754182384    4.201190534    4.166621014
    6.311202003    4.736352000    4.105462752    4.066019915
    6.344589316    4.734733701    3.967808367    3.919861600
    6.377976628    4.738565208    3.842045578    3.785995263
    6.411363940    4.759573900    3.741072551    3.677407613
    6.444751252    4.933138581    3.751939788    3.678117523
    6.478138564    5.214808409    3.869177987    3.785076901
    6.511525876    5.468571692    3.962991188    3.868886681
    6.544913189    5.502105484    3.916348916    3.817232527
    6.578300501    5.243731630    3.774938105    3.683130801
    6.611687813    4.863318777    3.681131464    3.607233319
    6.645075125    4.557526663    3.699602323    3.645976376
    6.678462437    4.422130886    3.775814346    3.735423565
    6.711849750    4.412664870    3.828875310    3.792394353
    6.745237062    4.432356901    3.827987803    3.790218074
    6.778624374    4.421583899    3.779450376    3.739315844
    6.812011686    4.355829355    3.697527493    3.656382228
    6.845398998    4.235710160    3.601852701    3.562237026
    6.878786311    4.088450847    3.523398318    3.488086786
    6.912173623    3.962437126    3.461463003    3.430156537
    6.945560935    3.859840825    3.419896691    3.392406245
    6.978948247    3.711805181    3.393812426    3.373947092
    7.012335559    3.549667460    3.388805640    3.378757013
    7.045722871    3.440492471    3.388680219    3.385440160
    7.079110184    3.383009787    3.371703739    3.370991686
    7.112497496    3.332239727    3.341600041    3.342174407
    7.145884808    3.357038681    3.358872801    3.358977234
    7.179272120    3.499698529    3.445676956    3.442300871
    7.212659432    3.671364317    3.540475205    3.532304664
    7.246046745    3.767955956    3.552422409    3.538963983
    7.279434057    3.775403867    3.485492465    3.467381849
    7.312821369    3.821252872    3.454139056    3.431198506
    7.346208681    3.936831591    3.483469647    3.455135209
    7.379595993    4.030993602    3.525702659    3.494119122
    7.412983306    4.079512648    3.542325204    3.508749324
    7.446370618    4.083585337    3.511981340    3.476258642
    7.479757930    4.086899327    3.455576510    3.416126279
    7.513145242    4.105610370    3.436961076    3.395178638
    7.546532554    4.084216420    3.457732938    3.418584849
    7.579919866    4.078545360    3.507150192    3.471444986
    7.613307179    4.133918711    3.562739205    3.527048332
    7.646694491    4.136208704    3.574824314    3.539746722
    7.680081803    4.087731332    3.572155335    3.539936823
    7.713469115    4.006457126    3.585240509    3.558920146
    7.746856427    3.910824645    3.601480262    3.582152863
    7.780243740    3.960694832    3.639344687    3.619267285
    7.813631052    4.096398939    3.701269587    3.676586205
    7.847018364    4.146325818    3.765658506    3.741885417
    7.880405676    4.132696514    3.837255323    3.818803604
    7.913792988    4.136100067    3.896498709    3.881532541
    7.947180301    4.155544352    3.935580991    3.921841965
    7.980567613    4.132846443    3.949766296    3.938333414
    8.013954925    4.073472408    3.932585406    3.923787074
    8.047342237    3.984967800    3.874725918    3.867843556
    8.080729549    3.924725532    3.834139023    3.828486034
    8.114116861    3.870817081    3.828077546    3.825407826
    8.147504174    3.828001030    3.839355902    3.840061222
    8.180891486    3.856143559    3.834541874    3.833188585
    8.214278798    3.915334677    3.802188485    3.795119045
    8.247666110    3.948186871    3.806573415    3.797725544
    8.281053422    3.968067418    3.855226532    3.848176654
    8.314440735    3.943479807    3.915473244    3.913721414
    8.347828047    3.904810752    3.983390935    3.988294154
    8.381215359    3.896210812    4.048954130    4.058489912
    8.414602671    3.954422161    4.121969354    4.132431924
    8.447989983    4.055486920    4.217648395    4.227775545
    8.481377295    4.133106604    4.317772407    4.329304740
    8.514764608    4.244686277    4.424488996    4.435716258
    8.548151920    4.413226302    4.541717167    4.549739931
    8.581539232    4.537603754    4.617612596    4.622607671
    8.614926544    4.584912504    4.661366209    4.666142112
    8.648313856    4.588799967    4.714287645    4.722125689
    8.681701169    4.565869110    4.748744040    4.760162921
    8.715088481    4.585797053    4.802660188    4.816201506
    8.748475793    4.611727171    4.868758742    4.884811575
    8.781863105    4.642266342    4.931833592    4.949922923
    8.815250417    4.700878006    4.962692153    4.979052990
    8.848637730    4.771784946    4.976693227    4.989501850
    8.882025042    4.848666944    5.022976720    5.033872801
    8.915412354    4.874648602    5.066482202    5.078471698
    8.948799666    4.823383850    5.077460520    5.093334166
    8.982186978    4.767054841    5.091494927    5.111763539
    9.015574290    4.776678258    5.139172239    5.161822225
    9.048961603    4.870664782    5.176104113    5.195194897
    9.082348915    4.974634959    5.194913011    5.208684674
    9.115736227    4.973083414    5.180001177    5.192934059
    9.149123539    4.929940774    5.151339988    5.165171580
    9.182510851    4.957323032    5.122419183    5.132731430
    9.215898164    4.994842241    5.051089302    5.054602788
    9.249285476    4.982070617    4.963193532    4.962014711
    9.282672788    4.950567143    4.898245338    4.894977407
    9.316060100    4.927920124    4.869962383    4.866343239
    9.349447412    4.916510173    4.817295080    4.811098596
    9.382834725    4.918770214    4.723073801    4.710844388
    9.416222037    4.953016657    4.679109804    4.661987181
    9.449609349    4.988371146    4.706453626    4.688828821
    9.482996661    4.987872339    4.760271298    4.746042075
    9.516383973    4.946599066    4.780317028    4.769923664
    9.549771285    4.808118284    4.703301827    4.696755193
    9.583158598    4.592604898    4.583271491    4.582692156
    9.616545910    4.402035897    4.484037751    4.489164834
    9.649933222    4.271045534    4.407817207    4.416366670
    9.683320534    4.201585651    4.318104110    4.325388280
    9.716707846    4.171114400    4.213676533    4.216340400
    9.750095159    4.163335196    4.124469482    4.122045849
    9.783482471    4.190723160    4.084642477    4.078015888
    9.816869783    4.250828317    4.090143757    4.080099142
    9.850257095    4.321411665    4.102088765    4.088376168
    9.883644407    4.386660699    4.099362746    4.081399087
    9.917031720    4.436845687    4.099299359    4.078193497
    9.950419032    4.420933363    4.118019372    4.099073125
    9.983806344    4.335934647    4.117150621    4.103461597
   10.017193656    4.254674386    4.087425478    4.076955901
   10.050580968    4.214718358    4.080151302    4.071726811
   10.083968280    4.229853125    4.076815299    4.067251025
   10.117355593    4.302031006    4.045337741    4.029305903
   10.150742905    4.386162306    4.029350220    4.007059265
   10.184130217    4.464507303    4.050074263    4.024174059
   10.217517529    4.550376965    4.096286801    4.067905155
   10.250904841    4.596894110    4.136258932    4.107468351
   10.284292154    4.554562069    4.156186069    4.131281931
   10.317679466    4.479964719    4.176996876    4.158057935
   10.351066778    4.462056273    4.174526411    4.156557410
   10.384454090    4.488670294    4.147742913    4.126438758
   10.417841402    4.525720678    4.153225571    4.129952113
   10.451228715    4.533531453    4.198570742    4.177647405
   10.484616027    4.468061119    4.235594267    4.221073315
   10.518003339    4.367353361    4.275968497    4.270258026
   10.551390651    4.256930456    4.296823393    4.299319853
   10.584777963    4.138388301    4.251549295    4.258637428
   10.618165275    4.071792551    4.175308546    4.181794807
   10.651552588    4.084162660    4.167966894    4.173213020
   10.684939900    4.130194206    4.236060633    4.242681555
   10.718327212    4.182545948    4.323439261    4.332253086
   10.751714524    4.222622994    4.374816864    4.384337231
   10.785101836    4.208736592    4.377628739    4.388188875
   10.818489149    4.155953429    4.353201537    4.365527974
   10.851876461    4.111427506    4.333155969    4.347001954
   10.885263773    4.090067977    4.321770555    4.336231095
