# energy grid [eV]     epsr_x  epsr_y  epsr_z
#
    0.001000000   10.204268561   10.203241428   10.203178976
    0.034387312   10.204738155   10.203707638   10.203644974
    0.067774624   10.206094248   10.205053953   10.204990679
    0.101161937   10.208337988   10.207281495   10.207217211
    0.134549249   10.211471272   10.210392121   10.210326422
    0.167936561   10.215496758   10.214388426   10.214320907
    0.201323873   10.220417862   10.219273754   10.219204002
    0.234711185   10.226238775   10.225052200   10.224979798
    0.268098497   10.232964468   10.231728624   10.231653148
    0.301485810   10.240600703   10.239308658   10.239229675
    0.334873122   10.249154050   10.247798724   10.247715792
    0.368260434   10.258631901   10.257206044   10.257118711
    0.401647746   10.269042488   10.267538662   10.267446464
    0.435035058   10.280394902   10.278805460   10.278707919
    0.468422371   10.292699117   10.291016178   10.290912803
    0.501809683   10.305966014   10.304181444   10.304071727
    0.535196995   10.320207408   10.318312791   10.318196207
    0.568584307   10.335436077   10.333422693   10.333298698
    0.601971619   10.351665798   10.349524593   10.349392621
    0.635358932   10.368911376   10.366632937   10.366492401
    0.668746244   10.387188690   10.384763210   10.384613497
    0.702133556   10.406514730   10.403931978   10.403772451
    0.735520868   10.426907644   10.424156931   10.423986922
    0.768908180   10.448386790   10.445456929   10.445275741
    0.802295492   10.470972783   10.467852056   10.467658956
    0.835682805   10.494687562   10.491363668   10.491157890
    0.869070117   10.519554443   10.516014463   10.515795199
    0.902457429   10.545598195   10.541828535   10.541594937
    0.935844741   10.572845109   10.568831452   10.568582625
    0.969232053   10.601323077   10.597050323   10.596785327
    1.002619366   10.631061680   10.626513889   10.626231728
    1.036006678   10.662092279   10.657252602   10.656952224
    1.069393990   10.694448116   10.689298724   10.688979016
    1.102781302   10.728164425   10.722686429   10.722346212
    1.136168614   10.763278544   10.757451916   10.757089939
    1.169555927   10.799830051   10.793633525   10.793248462
    1.202943239   10.837860896   10.831271873   10.830862312
    1.236330551   10.877415553   10.870409992   10.869974433
    1.269717863   10.918541189   10.911093483   10.910630327
    1.303105175   10.961287833   10.953370685   10.952878228
    1.336492487   11.005708581   10.997292855   10.996769277
    1.369879800   11.051859797   11.042914365   11.042357724
    1.403267112   11.099801353   11.090292920   11.089701137
    1.436654424   11.149596875   11.139489793   11.138860643
    1.470041736   11.201314024   11.190570081   11.189901178
    1.503429048   11.255024799   11.243602985   11.242891769
    1.536816361   11.310805865   11.298662123   11.297905843
    1.570203673   11.368738925   11.355825863   11.355021560
    1.603590985   11.428911119   11.415177699   11.414322187
    1.636978297   11.491415467   11.476806656   11.475896499
    1.670365609   11.556351366   11.540807746   11.539839234
    1.703752922   11.623825126   11.607282462   11.606251585
    1.737140234   11.693950579   11.676339332   11.675241748
    1.770527546   11.766849743   11.748094530   11.746925532
    1.803914858   11.842653574   11.822672554   11.821427033
    1.837302170   11.921502793   11.900206983   11.898879383
    1.870689482   12.003548824   11.980841321   11.979425593
    1.904076795   12.088954833   12.064729943   12.063219486
    1.937464107   12.177896909   12.152039146   12.150426752
    1.970851419   12.270565386   12.242948349   12.241226124
    2.004238731   12.367166343   12.337651426   12.335810716
    2.037626043   12.467923308   12.436358224   12.434389522
    2.071013356   12.573079188   12.539296287   12.537189124
    2.104400668   12.682898483   12.646712806   12.644455636
    2.137787980   12.797669821   12.758876859   12.756456911
    2.171175292   12.917708867   12.876081965   12.873485089
    2.204562604   13.043361694   12.998649032   12.995859505
    2.237949917   13.175008688   13.126929758   13.123930067
    2.271337229   13.313069098   13.261310578   13.258081158
    2.304724541   13.458006369   13.402217262   13.398736201
    2.338111853   13.610334421   13.550120315   13.546362987
    2.371499165   13.770625080   13.705541323   13.701479966
    2.404886477   13.939516936   13.869060492   13.864663698
    2.438273790   14.117725958   14.041325628   14.036557736
    2.471661102   14.306058324   14.223062939   14.217883295
    2.505048414   14.505426021   14.415090101   14.409452161
    2.538435726   14.716865994   14.618332211   14.612182450
    2.571823038   14.941563847   14.833841432   14.827117996
    2.605210351   15.180883473   15.062821439   15.055452469
    2.638597663   15.436404482   15.306658134   15.298559682
    2.671984975   15.709970014   15.566958732   15.558032122
    2.705372287   16.003748581   15.845602084   15.835730559
    2.738759599   16.320315055   16.144804354   16.133848768
    2.772146912   16.662758157   16.467205847   16.454999065
    2.805534224   17.034824907   16.815987217   16.802326755
    2.838921536   17.441116700   17.195026222   17.179664433
    2.872308848   17.887356313   17.609108489   17.591739243
    2.905696160   18.380745926   18.064201400   18.044441505
    2.939083472   18.930414953   18.567764575   18.545126632
    2.972470785   19.547838173   19.128904170   19.102752926
    3.005858097   20.246582338   19.757472023   19.726940216
    3.039245409   21.038576773   20.458366737   20.422147565
    3.072632721   21.916524728   21.208665051   21.164473659
    3.106020033   22.804747612   21.911502873   21.855726148
    3.139407346   23.549815405   22.454175673   22.385741502
    3.172794658   24.092068409   22.904492446   22.830294136
    3.206181970   24.471016600   23.406387239   23.339847792
    3.239569282   24.724798539   24.035950396   23.992879710
    3.272956594   24.992152290   24.832332202   24.822313804
    3.306343907   25.271899088   25.728332978   25.756808291
    3.339731219   25.506404139   26.672955150   26.745789050
    3.373118531   25.553278546   27.581866122   27.708553313
    3.406505843   25.396020970   28.320185281   28.502825892
    3.439893155   25.043685263   28.560238078   28.779880100
    3.473280467   24.340776354   28.046321982   28.277738947
    3.506667780   23.331959418   27.153162091   27.391768704
    3.540055092   22.405077148   26.077673231   26.306976909
    3.573442404   21.641131520   24.844319267   25.044311626
    3.606829716   20.904809189   23.591183033   23.758924904
    3.640217028   20.156758978   22.202815064   22.330592572
    3.673604341   19.542553292   20.682849852   20.754031020
    3.706991653   18.758991864   19.061776611   19.080604162
    3.740378965   17.535679819   17.284136516   17.268351871
    3.773766277   16.310506517   15.767662593   15.733730596
    3.807153589   15.081111215   14.381841462   14.338186734
    3.840540902   13.496179620   12.810615862   12.767839566
    3.873928214   11.676675457   11.253602939   11.227252586
    3.907315526    9.811092482    9.684951699    9.677235558
    3.940702838    7.663476741    7.486965399    7.476201168
    3.974090150    5.061517882    4.376567752    4.334059100
    4.007477462    2.117993879    0.671138363    0.580985644
    4.040864775   -0.533071717   -2.620554802   -2.750788662
    4.074252087   -2.202067432   -4.716925687   -4.873934789
    4.107639399   -3.162976771   -5.859926144   -6.028367776
    4.141026711   -3.964651775   -6.595900184   -6.760266023
    4.174414023   -4.677914318   -7.134328800   -7.287769267
    4.207801336   -5.364819459   -7.417581019   -7.545800369
    4.241188648   -6.015110492   -7.444697645   -7.533970414
    4.274575960   -6.745296928   -7.448043216   -7.491896177
    4.307963272   -7.732722473   -7.621882887   -7.614901790
    4.341350584   -8.730870738   -7.717945275   -7.654616637
    4.374737896   -9.377873720   -7.551831067   -7.437702302
    4.408125209   -9.600504563   -7.192151332   -7.041632481
    4.441512521   -9.442129072   -6.763572549   -6.596196022
    4.474899833   -8.863999608   -6.277188049   -6.115574819
    4.508287145   -8.104350745   -5.756728373   -5.610088627
    4.541674457   -7.412898437   -5.321879818   -5.191291780
    4.575061770   -6.743934434   -4.887542112   -4.771617906
    4.608449082   -6.026273302   -4.380167411   -4.277384859
    4.641836394   -5.317067036   -3.848136921   -3.756420348
    4.675223706   -4.702527887   -3.340930997   -3.255919463
    4.708611018   -4.163412212   -2.918873363   -2.841179934
    4.741998331   -3.648938993   -2.547460950   -2.478698792
    4.775385643   -3.133033276   -2.197486140   -2.139075375
    4.808772955   -2.644323729   -1.908098656   -1.862139309
    4.842160267   -2.244498130   -1.679204208   -1.643927094
    4.875547579   -1.970753689   -1.469092591   -1.437777981
    4.908934891   -1.722784328   -1.255893720   -1.226747287
    4.942322204   -1.503837238   -1.109029556   -1.084398555
    4.975709516   -1.275590108   -0.959385176   -0.939667853
    5.009096828   -0.981368967   -0.777164429   -0.764442876
    5.042484140   -0.760658675   -0.619715783   -0.610944136
    5.075871452   -0.636814646   -0.555683739   -0.550648210
    5.109258765   -0.487104756   -0.497515903   -0.498193137
    5.142646077   -0.267874632   -0.352557740   -0.357879528
    5.176033389   -0.047293365   -0.262230580   -0.275695264
    5.209420701    0.173369281   -0.278147747   -0.306396021
    5.242808013    0.416161158   -0.326285185   -0.372718991
    5.276195326    0.680669453   -0.334107243   -0.397555525
    5.309582638    0.988145578   -0.253002332   -0.330582650
    5.342969950    1.210860986   -0.151508781   -0.236652891
    5.376357262    1.312140519   -0.115195817   -0.204397888
    5.409744574    1.426230214   -0.147186295   -0.245523538
    5.443131886    1.582173380   -0.149857524   -0.258105521
    5.476519199    1.725883781   -0.038546855   -0.148810669
    5.509906511    1.837282273    0.145945741    0.040261751
    5.543293823    1.866501581    0.295719073    0.197573568
    5.576681135    1.752642981    0.334639211    0.246036591
    5.610068447    1.552635883    0.296516938    0.218030480
    5.643455760    1.436522094    0.331439828    0.262388900
    5.676843072    1.401260991    0.345959174    0.280001982
    5.710230384    1.358409333    0.258247465    0.189480310
    5.743617696    1.381391928    0.230841144    0.158941495
    5.777005008    1.563752393    0.338048923    0.261466736
    5.810392321    1.778394499    0.463537949    0.381387157
    5.843779633    1.842194111    0.528673959    0.446600358
    5.877166945    1.736881314    0.538972873    0.464104136
    5.910554257    1.622432307    0.551394485    0.484438677
    5.943941569    1.625060181    0.625614917    0.563142498
    5.977328881    1.693968079    0.696346553    0.634003124
    6.010716194    1.742003888    0.732318434    0.669225477
    6.044103506    1.798050531    0.762543890    0.697828583
    6.077490818    1.925806251    0.852491153    0.785410161
    6.110878130    2.088962003    1.015795850    0.948729273
    6.144265442    2.229693631    1.163633925    1.097014663
    6.177652755    2.259782875    1.238934823    1.175136055
    6.211040067    2.192906527    1.275546757    1.218206708
    6.244427379    2.154680832    1.272132628    1.216966418
    6.277814691    2.141875817    1.202132532    1.143392525
    6.311202003    2.143518802    1.137309551    1.074418526
    6.344589316    2.178612695    1.153484913    1.089414362
    6.377976628    2.209940545    1.225284548    1.163751443
    6.411363940    2.312402655    1.368548322    1.309574393
    6.444751252    2.422294609    1.549179187    1.494621278
    6.478138564    2.374775528    1.642261599    1.596480841
    6.511525876    2.109918490    1.589748809    1.557240145
    6.544913189    1.672499420    1.491500990    1.480193069
    6.578300501    1.309070999    1.495671434    1.507338337
    6.611687813    1.185446132    1.616940631    1.643918447
    6.645075125    1.281656110    1.749725279    1.778997228
    6.678462437    1.451834556    1.803206788    1.825182189
    6.711849750    1.564635071    1.782413038    1.796032506
    6.745237062    1.585584061    1.733247759    1.742480173
    6.778624374    1.543287325    1.690606820    1.699818435
    6.812011686    1.477620374    1.675077040    1.687425271
    6.845398998    1.430776939    1.700455478    1.717319643
    6.878786311    1.431797435    1.758239352    1.778650618
    6.912173623    1.480630149    1.830627044    1.852507841
    6.945560935    1.514375213    1.911079145    1.935879664
    6.978948247    1.552226038    1.993462255    2.021041090
    7.012335559    1.663988635    2.070128998    2.095507901
    7.045722871    1.831932534    2.127782680    2.146268596
    7.079110184    1.997387779    2.176876927    2.188092596
    7.112497496    2.180841670    2.259497965    2.264415969
    7.145884808    2.413458970    2.375617383    2.373264941
    7.179272120    2.597375826    2.459924092    2.451351935
    7.212659432    2.654063176    2.451993299    2.439377717
    7.246046745    2.627072529    2.391956912    2.377267663
    7.279434057    2.634714113    2.390612889    2.375355920
    7.312821369    2.715351126    2.467166354    2.451652937
    7.346208681    2.749587678    2.531361426    2.517721352
    7.379595993    2.716062909    2.553808697    2.543669784
    7.412983306    2.658877232    2.540653982    2.533272698
    7.446370618    2.616210182    2.532039360    2.526788438
    7.479757930    2.605810185    2.571867895    2.569755047
    7.513145242    2.583362186    2.657017435    2.661625257
    7.546532554    2.557068623    2.735901103    2.747081813
    7.579919866    2.589051050    2.797404666    2.810429715
    7.613307179    2.579169557    2.813480433    2.828128336
    7.646694491    2.510677590    2.813181675    2.832088413
    7.680081803    2.470322934    2.844416525    2.867797082
    7.713469115    2.456976201    2.886292095    2.913127088
    7.746856427    2.546944231    2.932907698    2.957032607
    7.780243740    2.695206117    2.990842974    3.009324465
    7.813631052    2.707725714    3.029113932    3.049206766
    7.847018364    2.633443728    3.049829926    3.075852842
    7.880405676    2.594054184    3.049512175    3.077969668
    7.913792988    2.588442243    3.022816923    3.049957407
    7.947180301    2.549634230    2.980677638    3.007611616
    7.980567613    2.492023046    2.932351763    2.959863860
    8.013954925    2.449396785    2.882420359    2.909474841
    8.047342237    2.451440052    2.867107660    2.893078110
    8.080729549    2.496763104    2.906512102    2.932107899
    8.114116861    2.542554640    2.951069637    2.976584671
    8.147504174    2.634048688    2.983008874    3.004806736
    8.180891486    2.734963318    2.995523084    3.011802139
    8.214278798    2.776057113    3.042741129    3.059403152
    8.247666110    2.788369620    3.132421159    3.153915114
    8.281053422    2.788058227    3.209430486    3.235753979
    8.314440735    2.789692712    3.266713373    3.296511179
    8.347828047    2.844451501    3.310050261    3.339135281
    8.381215359    2.943993781    3.344633665    3.369664366
    8.414602671    3.059395964    3.385348568    3.405714468
    8.447989983    3.118605913    3.413573195    3.432002967
    8.481377295    3.159361984    3.421168816    3.437526096
    8.514764608    3.218252385    3.416300791    3.428676428
    8.548151920    3.212394956    3.375769354    3.385980364
    8.581539232    3.114657836    3.298003649    3.309463334
    8.614926544    3.011023742    3.247432572    3.262206227
    8.648313856    2.926890227    3.197589746    3.214502040
    8.681701169    2.898908877    3.156255726    3.172334591
    8.715088481    2.898009342    3.127921887    3.142291283
    8.748475793    2.882535875    3.083330854    3.095884470
    8.781863105    2.880816062    3.013493901    3.021794352
    8.815250417    2.873477321    2.931707550    2.935355999
    8.848637730    2.843219328    2.880576034    2.882915907
    8.882025042    2.771844949    2.836302757    2.840332082
    8.915412354    2.656435104    2.757008219    2.763291051
    8.948799666    2.571136243    2.679300383    2.686057177
    8.982186978    2.571215334    2.631550177    2.635323127
    9.015574290    2.618510266    2.571305616    2.568362812
    9.048961603    2.633991486    2.476155275    2.466298325
    9.082348915    2.544575067    2.368199891    2.357178407
    9.115736227    2.414800334    2.252160068    2.241991546
    9.149123539    2.373608468    2.160645387    2.147333332
    9.182510851    2.357492047    2.057559520    2.038817874
    9.215898164    2.277749797    1.957999039    1.938021225
    9.249285476    2.190283847    1.904654142    1.886807377
    9.282672788    2.130142550    1.885926224    1.870666461
    9.316060100    2.091176600    1.857569224    1.842971041
    9.349447412    2.056841019    1.795860926    1.779549319
    9.382834725    2.028665850    1.781873583    1.766444433
    9.416222037    1.984077404    1.826885119    1.817057142
    9.449609349    1.888778383    1.849656118    1.847211219
    9.482996661    1.758291825    1.808453881    1.811592533
    9.516383973    1.601273995    1.690011867    1.695564292
    9.549771285    1.437043606    1.563664239    1.571582232
    9.583158598    1.372941818    1.506017568    1.514334486
    9.616545910    1.414189006    1.496779315    1.501939996
    9.649933222    1.507293623    1.488124913    1.486926335
    9.683320534    1.614876410    1.478531713    1.470009984
    9.716707846    1.707434162    1.497457667    1.484333873
    9.750095159    1.797636339    1.562602789    1.547909335
    9.783482471    1.879933430    1.648090916    1.633592275
    9.816869783    1.934324930    1.713025569    1.699184333
    9.850257095    1.946277104    1.740582776    1.727718391
    9.883644407    1.925736916    1.758873135    1.748436808
    9.917031720    1.859741858    1.783883507    1.779136063
    9.950419032    1.765115240    1.795656138    1.797560777
    9.983806344    1.717801295    1.777053120    1.780758102
   10.017193656    1.745828327    1.780714564    1.782901141
   10.050580968    1.815152422    1.803368597    1.802649356
   10.083968280    1.897909392    1.802059474    1.796090769
   10.117355593    1.953993276    1.813499683    1.804730994
   10.150742905    1.954790803    1.859066220    1.853084101
   10.184130217    1.933796578    1.907273925    1.905613590
   10.217517529    1.871293126    1.928638179    1.932223189
   10.250904841    1.753103814    1.917777841    1.928070347
   10.284292154    1.635070644    1.901010858    1.917634336
   10.317679466    1.601789601    1.880590237    1.898024390
   10.351066778    1.612801347    1.847572985    1.862255688
   10.384454090    1.597385707    1.844903529    1.860381976
   10.417841402    1.540552320    1.878460204    1.899588131
   10.451228715    1.430352619    1.884612786    1.913007624
   10.484616027    1.319880349    1.865600667    1.899705143
   10.518003339    1.255586790    1.830927388    1.866884752
   10.551390651    1.227950176    1.759553810    1.792787183
   10.584777963    1.254882650    1.687695844    1.714752345
   10.618165275    1.342346113    1.695976761    1.718072104
   10.651552588    1.422124877    1.762622895    1.783892656
   10.684939900    1.452566106    1.799274479    1.820936452
   10.718327212    1.443378953    1.765347395    1.785463434
   10.751714524    1.385708502    1.680510607    1.698923299
   10.785101836    1.306270972    1.587584113    1.605149102
   10.818489149    1.256895089    1.517415581    1.533677926
   10.851876461    1.243453814    1.465062087    1.478892063
   10.885263773    1.225792497    1.403965468    1.415091193
